Placeholder		
Volume (mL)	E(mV)	Temperature
0	-83.4	21.4
0.01	-83.5	21.4
0.02	-82.3	21.4
0.037	-79.4	21.4
0.053	-75.7	21.4
0.063	-72	21.4
0.073	-68.3	21.4
0.083	-64.9	21.4
0.094	-60.4	21.4
0.104	-56	21.4
0.114	-51.9	21.4
0.124	-47.5	21.4
0.134	-43.2	21.4
0.144	-39.7	21.4
0.154	-36.3	21.4
0.165	-33.3	21.4
0.175	-30.7	21.4
0.192	-27.1	21.4
0.202	-24.3	21.4
