Placeholder		
Volume (mL)	E(mV)	Temperature
0	-91.3	22.3
0.5	13.7	22.3
0.51	14.8	22.3
0.538	17.8	22.3
0.581	22.1	22.3
0.641	28.1	22.3
0.716	35.7	22.3
0.783	42.9	22.3
0.858	52	22.3
0.936	63.4	22.3
1.004	76.8	22.3
1.054	91	22.3
1.089	105.4	22.3
1.113	117.8	22.3
1.132	127.8	22.3
1.15	136.1	22.3
1.17	143.2	22.3
1.193	149.8	22.3
1.221	156.4	22.3
1.254	162.6	22.3
1.295	168.7	22.3
