Placeholder		
Volume (mL)	E(mV)	Temperature
0	-95.8	22.4
0.5	6.3	22.4
0.51	7.5	22.4
0.537	10	22.4
0.581	13.9	22.4
0.644	19.6	22.4
0.724	26.9	22.4
0.817	35.2	22.4
0.872	40.4	22.4
0.965	49.8	22.4
1.06	61.4	22.4
1.141	75.3	22.4
1.199	89.2	22.4
1.24	103.2	22.4
1.269	115.9	22.4
1.291	126.2	22.4
1.312	135	22.4
1.334	142.5	22.4
1.359	149.1	22.4
1.389	155.7	22.4
1.425	161.7	22.4
1.47	168.3	22.4
