Placeholder		
Volume (mL)	E(pH)	Temperature
0	8.01	25
0.01	8.01	25
0.046	7.95	25
0.069	7.89	25
0.097	7.83	25
0.116	7.78	25
0.192	7.64	25
0.222	7.53	25
0.261	7.39	25
0.292	7.26	25
0.327	7.14	25
0.362	7.04	25
0.417	6.94	25
0.47	6.85	25
0.573	6.71	25
0.605	6.65	25
0.66	6.57	25
0.75	6.51	25
0.9	6.35	25
1.101	6.18	25
1.349	5.97	25
1.545	5.81	25
1.739	5.66	25
1.954	5.44	25
2.132	5.2	25
2.256	4.95	25
2.339	4.7	25
2.395	4.48	25
2.438	4.31	25
2.479	4.16	25
