Placeholder		
Volume (mL)	E(mV)	Temperature
0	-85	22
0.01	-85.2	22
0.02	-84.4	22
0.038	-81	22
0.05	-77.7	22
0.06	-74.3	22
0.07	-70.9	22
0.08	-67.4	22
0.09	-63.9	22
0.1	-60.1	22
0.11	-55.9	22
0.12	-51.6	22
0.13	-47.4	22
0.14	-43.4	22
0.15	-40	22
0.16	-36.8	22
0.17	-34.1	22
0.18	-31.4	22
0.198	-27.9	22
