Placeholder		
Volume (mL)	E(mV)	Temperature
0	-95.2	23
0.5	8.1	23
0.51	9.3	23
0.537	12	23
0.561	14.3	23
0.588	17	23
0.631	20.9	23
0.692	26.5	23
0.771	34.1	23
0.861	42.9	23
0.942	52.2	23
1.029	64.1	23
1.101	77.8	23
1.153	91.7	23
1.19	106.7	23
1.214	118.2	23
1.234	128.2	23
1.254	136	23
1.276	143.8	23
1.301	150.3	23
1.331	157.2	23
1.366	163.3	23
1.409	169.5	23
