Placeholder		
Volume (mL)	E(mV)	Temperature
0	-90.1	22.3
0.5	13.7	22.3
0.51	15.4	22.3
0.535	17.5	22.3
0.577	21.3	22.3
0.638	27.3	22.3
0.714	34.7	22.3
0.801	43.9	22.3
0.891	55	22.3
0.972	66.7	22.3
1.04	82.8	22.3
1.082	96.6	22.3
1.112	110.3	22.3
1.134	122.3	22.3
1.152	131.3	22.3
1.171	139.2	22.3
1.192	146.2	22.3
1.216	152.5	22.3
1.246	158.9	22.3
1.282	165	22.3
1.327	171.1	22.3
