Placeholder		
Volume (mL)	E(mV)	Temperature
0	-87.7	22.4
0.5	10.2	22.4
0.51	11	22.4
0.539	13.8	22.4
0.584	18.1	22.4
0.647	23.6	22.4
0.728	30.8	22.4
0.822	39.4	22.4
0.923	50.2	22.4
1.006	60.3	22.4
1.088	73.5	22.4
1.15	88.2	22.4
1.192	103.6	22.4
1.219	116.1	22.4
1.24	126.5	22.4
1.26	135.4	22.4
1.281	142.7	22.4
1.305	149.6	22.4
1.333	156.1	22.4
1.367	162.7	22.4
1.408	168.5	22.4
