Placeholder		
Volume (mL)	E(mV)	Temperature
0	-87.5	22
0.01	-87.5	22
0.049	-85.1	22
0.059	-82.7	22
0.082	-80	22
0.092	-77.2	22
0.104	-74.6	22
0.114	-72	22
0.131	-69.1	22
0.141	-66.1	22
0.153	-62.9	22
0.163	-60	22
0.175	-56.7	22
0.185	-53.7	22
0.195	-50.9	22
0.205	-48.3	22
0.216	-45.7	22
0.226	-43.3	22
0.24	-40.9	22
0.25	-38.5	22
0.267	-35.8	22
