Placeholder		
Volume (mL)	E(mV)	Temperature
0	-88.4	21.8
0.5	14	21.8
0.51	15	21.8
0.538	17.6	21.8
0.583	21.8	21.8
0.623	25.6	21.8
0.663	29.1	21.8
0.708	33.4	21.8
0.748	37.2	21.8
0.788	40.8	21.8
0.833	45.9	21.8
0.873	50.3	21.8
0.913	55.3	21.8
0.958	61.7	21.8
0.998	68.4	21.8
1.043	77.6	21.8
1.083	88.8	21.8
1.115	101	21.8
1.141	114.2	21.8
1.16	124.3	21.8
1.178	133.4	21.8
1.197	141.3	21.8
1.218	147.9	21.8
1.243	155	21.8
1.272	160.7	21.8
1.309	167.7	21.8
1.352	173.5	21.8
