Placeholder		
Volume (mL)	E(mV)	Temperature
0	-89.3	21.8
0.5	15.5	21.8
0.51	16.6	21.8
0.537	19.3	21.8
0.58	23.7	21.8
0.64	29.7	21.8
0.715	37.5	21.8
0.799	47.2	21.8
0.884	58.9	21.8
0.956	72	21.8
1.011	86.5	21.8
1.048	100.5	21.8
1.074	113.8	21.8
1.093	124.5	21.8
1.11	133	21.8
1.128	140.3	21.8
1.149	147	21.8
1.174	153.5	21.8
1.204	159.8	21.8
1.241	165.9	21.8
1.287	171.9	21.8
