Placeholder		
Volume (mL)	E(mV)	Temperature
0	-90.2	22.3
0.5	14	22.3
0.51	14.9	22.3
0.538	17.6	22.3
0.582	22	22.3
0.643	27.9	22.3
0.72	35.5	22.3
0.807	44.8	22.3
0.897	56.1	22.3
0.976	68.8	22.3
1.038	82.9	22.3
1.081	97.3	22.3
1.11	111	22.3
1.131	122.3	22.3
1.149	131.5	22.3
1.168	139.1	22.3
1.189	146	22.3
1.214	152.5	22.3
1.244	158.9	22.3
1.28	165	22.3
1.325	171.2	22.3
