Placeholder		
Volume (mL)	E(mV)	Temperature
0	-137.7	21.7
0.5	-107.8	21.7
0.51	-105.6	21.7
0.52	-103.5	21.7
0.53	-101.9	21.7
0.54	-99.8	21.7
0.55	-98	21.7
0.56	-96.1	21.7
0.57	-94.1	21.7
0.58	-92.1	21.7
0.59	-89.9	21.7
0.6	-87.6	21.7
0.61	-85.2	21.7
0.62	-82.7	21.7
0.63	-80	21.7
0.64	-77.2	21.7
0.65	-74.2	21.7
0.66	-71	21.7
0.67	-67.8	21.7
0.68	-64.4	21.7
0.69	-60.8	21.7
0.7	-57.3	21.7
0.71	-53.8	21.7
0.72	-50.4	21.7
0.73	-47.4	21.7
0.74	-44.6	21.7
0.75	-42.1	21.7
0.76	-39.8	21.7
